1
 OUTPUT FROM NONPUL:
  INITIAL MODEL IN HYDROSTATIC AND THERMAL BALANCE

  ZAMS 130 Msun to test the complete integrator                                      200 ZONES

     TOTAL LUMINOSITY= 7.7397E+39 TOTAL MASS= 2.5883E+35 EFFECTIVE TEMP.= 5.5266E+04
       PHOTOSPHERIC RADIUS= 1.0791E+12 CORE RADIUS= 6.2950E+10 CORE LUM.= 7.2700E+38
 IRAD= 1 NOBURN= 0 ONEMQ0= 1.000E+00 ONEMQ1= 1.000E+00 RLUMS= 7.740E+39 RLUMC= 7.740E+33
           IOUT= 0 IHMIN=  0 IHMAX=  0
   I   RADIUS     TEMP     SP.VOL   PRESSURE     G1       G3M1     OPACITY   DLKDLR    DLKDLT      CV       FRFT    INT.MASS
    1 7.969E+10 4.152E+07 8.173E-01 1.425E+16 1.420E+00 3.671E-01 3.352E-01 1.718E-03-1.183E-02 1.970E+09 1.378E-02 2.617E+33
    2 9.171E+10 4.117E+07 8.362E-01 1.379E+16 1.420E+00 3.672E-01 3.352E-01 1.782E-03-1.195E-02 1.966E+09 2.076E-02 3.946E+33
    3 1.015E+11 4.086E+07 8.535E-01 1.340E+16 1.421E+00 3.672E-01 3.352E-01 1.839E-03-1.206E-02 1.962E+09 2.780E-02 5.288E+33
    4 1.099E+11 4.058E+07 8.699E-01 1.304E+16 1.421E+00 3.673E-01 3.352E-01 1.891E-03-1.217E-02 1.959E+09 3.489E-02 6.643E+33
    5 1.173E+11 4.031E+07 8.857E-01 1.271E+16 1.421E+00 3.674E-01 3.352E-01 1.940E-03-1.227E-02 1.955E+09 4.205E-02 8.013E+33
    6 1.241E+11 4.006E+07 9.012E-01 1.240E+16 1.421E+00 3.674E-01 3.352E-01 1.987E-03-1.237E-02 1.952E+09 4.927E-02 9.396E+33
    7 1.304E+11 3.981E+07 9.164E-01 1.211E+16 1.421E+00 3.675E-01 3.352E-01 2.032E-03-1.246E-02 1.949E+09 5.655E-02 1.079E+34
    8 1.363E+11 3.957E+07 9.315E-01 1.183E+16 1.421E+00 3.675E-01 3.353E-01 2.075E-03-1.256E-02 1.946E+09 6.390E-02 1.220E+34
    9 1.419E+11 3.934E+07 9.466E-01 1.157E+16 1.421E+00 3.676E-01 3.353E-01 2.117E-03-1.265E-02 1.943E+09 7.131E-02 1.363E+34
   10 1.471E+11 3.911E+07 9.616E-01 1.131E+16 1.421E+00 3.676E-01 3.353E-01 2.158E-03-1.274E-02 1.941E+09 7.878E-02 1.507E+34
   11 1.522E+11 3.889E+07 9.766E-01 1.106E+16 1.421E+00 3.677E-01 3.353E-01 2.199E-03-1.283E-02 1.938E+09 8.632E-02 1.652E+34
   12 1.570E+11 3.867E+07 9.918E-01 1.082E+16 1.421E+00 3.677E-01 3.353E-01 2.238E-03-1.292E-02 1.935E+09 9.393E-02 1.799E+34
   13 1.617E+11 3.845E+07 1.007E+00 1.059E+16 1.421E+00 3.678E-01 3.353E-01 2.277E-03-1.302E-02 1.932E+09 1.016E-01 1.948E+34
   14 1.662E+11 3.824E+07 1.022E+00 1.037E+16 1.422E+00 3.678E-01 3.353E-01 2.316E-03-1.311E-02 1.930E+09 1.093E-01 2.097E+34
   15 1.707E+11 3.803E+07 1.038E+00 1.015E+16 1.422E+00 3.679E-01 3.353E-01 2.354E-03-1.320E-02 1.927E+09 1.172E-01 2.249E+34
   16 1.749E+11 3.782E+07 1.054E+00 9.932E+15 1.422E+00 3.679E-01 3.353E-01 2.392E-03-1.329E-02 1.924E+09 1.250E-01 2.402E+34
   17 1.791E+11 3.761E+07 1.069E+00 9.723E+15 1.422E+00 3.680E-01 3.354E-01 2.429E-03-1.338E-02 1.922E+09 1.330E-01 2.556E+34
   18 1.832E+11 3.741E+07 1.086E+00 9.518E+15 1.422E+00 3.680E-01 3.354E-01 2.467E-03-1.347E-02 1.919E+09 1.410E-01 2.712E+34
   19 1.873E+11 3.720E+07 1.102E+00 9.318E+15 1.422E+00 3.680E-01 3.354E-01 2.504E-03-1.357E-02 1.916E+09 1.491E-01 2.870E+34
   20 1.912E+11 3.700E+07 1.119E+00 9.122E+15 1.422E+00 3.681E-01 3.354E-01 2.541E-03-1.366E-02 1.914E+09 1.572E-01 3.029E+34
   21 1.951E+11 3.679E+07 1.135E+00 8.929E+15 1.422E+00 3.681E-01 3.354E-01 2.578E-03-1.376E-02 1.911E+09 1.655E-01 3.190E+34
   22 1.990E+11 3.659E+07 1.153E+00 8.740E+15 1.422E+00 3.682E-01 3.354E-01 2.615E-03-1.385E-02 1.908E+09 1.738E-01 3.352E+34
   23 2.027E+11 3.639E+07 1.170E+00 8.555E+15 1.422E+00 3.682E-01 3.354E-01 2.652E-03-1.395E-02 1.905E+09 1.821E-01 3.516E+34
   24 2.065E+11 3.618E+07 1.188E+00 8.373E+15 1.422E+00 3.683E-01 3.354E-01 2.688E-03-1.405E-02 1.903E+09 1.906E-01 3.682E+34
   25 2.102E+11 3.598E+07 1.206E+00 8.194E+15 1.422E+00 3.683E-01 3.354E-01 2.725E-03-1.415E-02 1.900E+09 1.991E-01 3.850E+34
   26 2.139E+11 3.578E+07 1.225E+00 8.017E+15 1.423E+00 3.684E-01 3.355E-01 2.762E-03-1.425E-02 1.897E+09 2.077E-01 4.019E+34
   27 2.175E+11 3.558E+07 1.244E+00 7.844E+15 1.423E+00 3.684E-01 3.355E-01 2.799E-03-1.435E-02 1.895E+09 2.164E-01 4.189E+34
   28 2.211E+11 3.538E+07 1.263E+00 7.673E+15 1.423E+00 3.685E-01 3.355E-01 2.837E-03-1.445E-02 1.892E+09 2.251E-01 4.362E+34
   29 2.247E+11 3.517E+07 1.283E+00 7.505E+15 1.423E+00 3.685E-01 3.355E-01 2.874E-03-1.456E-02 1.889E+09 2.339E-01 4.536E+34
   30 2.282E+11 3.497E+07 1.303E+00 7.340E+15 1.423E+00 3.686E-01 3.355E-01 2.911E-03-1.466E-02 1.886E+09 2.428E-01 4.712E+34
   31 2.318E+11 3.477E+07 1.324E+00 7.177E+15 1.423E+00 3.687E-01 3.355E-01 2.949E-03-1.477E-02 1.883E+09 2.518E-01 4.890E+34
   32 2.353E+11 3.457E+07 1.345E+00 7.016E+15 1.423E+00 3.687E-01 3.355E-01 2.987E-03-1.488E-02 1.881E+09 2.608E-01 5.070E+34
   33 2.388E+11 3.436E+07 1.367E+00 6.857E+15 1.423E+00 3.688E-01 3.355E-01 3.025E-03-1.499E-02 1.878E+09 2.699E-01 5.251E+34
   34 2.423E+11 3.416E+07 1.389E+00 6.701E+15 1.423E+00 3.688E-01 3.355E-01 3.063E-03-1.510E-02 1.875E+09 2.791E-01 5.434E+34
   35 2.458E+11 3.395E+07 1.412E+00 6.547E+15 1.423E+00 3.689E-01 3.356E-01 3.102E-03-1.522E-02 1.872E+09 2.884E-01 5.619E+34
   36 2.493E+11 3.374E+07 1.436E+00 6.395E+15 1.423E+00 3.689E-01 3.356E-01 3.141E-03-1.534E-02 1.869E+09 2.978E-01 5.806E+34
   37 2.528E+11 3.354E+07 1.460E+00 6.245E+15 1.424E+00 3.690E-01 3.356E-01 3.180E-03-1.545E-02 1.866E+09 3.072E-01 5.995E+34
   38 2.563E+11 3.333E+07 1.485E+00 6.097E+15 1.424E+00 3.690E-01 3.356E-01 3.220E-03-1.558E-02 1.863E+09 3.167E-01 6.186E+34
   39 2.597E+11 3.312E+07 1.510E+00 5.951E+15 1.424E+00 3.691E-01 3.356E-01 3.260E-03-1.570E-02 1.860E+09 3.263E-01 6.379E+34
   40 2.632E+11 3.291E+07 1.536E+00 5.807E+15 1.424E+00 3.692E-01 3.356E-01 3.301E-03-1.583E-02 1.857E+09 3.360E-01 6.573E+34
   41 2.667E+11 3.270E+07 1.563E+00 5.664E+15 1.424E+00 3.692E-01 3.356E-01 3.342E-03-1.595E-02 1.854E+09 3.457E-01 6.770E+34
   42 2.702E+11 3.249E+07 1.591E+00 5.524E+15 1.424E+00 3.693E-01 3.357E-01 3.383E-03-1.609E-02 1.851E+09 3.555E-01 6.969E+34
   43 2.737E+11 3.227E+07 1.620E+00 5.385E+15 1.424E+00 3.693E-01 3.357E-01 3.425E-03-1.622E-02 1.847E+09 3.654E-01 7.169E+34
   44 2.772E+11 3.206E+07 1.649E+00 5.249E+15 1.424E+00 3.694E-01 3.357E-01 3.468E-03-1.636E-02 1.844E+09 3.754E-01 7.372E+34
   45 2.807E+11 3.184E+07 1.680E+00 5.114E+15 1.424E+00 3.695E-01 3.357E-01 3.511E-03-1.650E-02 1.841E+09 3.855E-01 7.576E+34
   46 2.842E+11 3.163E+07 1.711E+00 4.980E+15 1.424E+00 3.695E-01 3.357E-01 3.555E-03-1.664E-02 1.838E+09 3.956E-01 7.783E+34
   47 2.878E+11 3.141E+07 1.744E+00 4.849E+15 1.425E+00 3.696E-01 3.357E-01 3.599E-03-1.679E-02 1.834E+09 4.058E-01 7.992E+34
   48 2.913E+11 3.119E+07 1.777E+00 4.719E+15 1.425E+00 3.697E-01 3.357E-01 3.644E-03-1.694E-02 1.831E+09 4.161E-01 8.203E+34
   49 2.949E+11 3.097E+07 1.812E+00 4.591E+15 1.425E+00 3.697E-01 3.358E-01 3.690E-03-1.709E-02 1.827E+09 4.265E-01 8.416E+34
   50 2.985E+11 3.074E+07 1.848E+00 4.464E+15 1.425E+00 3.698E-01 3.358E-01 3.736E-03-1.725E-02 1.824E+09 4.370E-01 8.631E+34
   51 3.021E+11 3.052E+07 1.885E+00 4.339E+15 1.425E+00 3.699E-01 3.358E-01 3.784E-03-1.741E-02 1.820E+09 4.475E-01 8.849E+34
   52 3.058E+11 3.029E+07 1.924E+00 4.216E+15 1.425E+00 3.699E-01 3.358E-01 3.832E-03-1.757E-02 1.817E+09 4.582E-01 9.068E+34
   53 3.094E+11 3.006E+07 1.963E+00 4.095E+15 1.425E+00 3.700E-01 3.358E-01 3.881E-03-1.774E-02 1.813E+09 4.689E-01 9.290E+34
   54 3.131E+11 2.983E+07 2.005E+00 3.975E+15 1.425E+00 3.701E-01 3.359E-01 3.931E-03-1.792E-02 1.810E+09 4.796E-01 9.514E+34
   55 3.168E+11 2.960E+07 2.048E+00 3.856E+15 1.426E+00 3.702E-01 3.359E-01 3.982E-03-1.810E-02 1.806E+09 5.647E-02 9.740E+34
   56 3.206E+11 2.936E+07 2.092E+00 3.739E+15 1.426E+00 3.702E-01 3.359E-01 4.034E-03-1.828E-02 1.802E+09 5.014E-01 9.969E+34
   57 3.244E+11 2.912E+07 2.139E+00 3.624E+15 1.426E+00 3.703E-01 3.359E-01 4.087E-03-1.847E-02 1.798E+09 5.125E-01 1.020E+35
   58 3.282E+11 2.888E+07 2.187E+00 3.511E+15 1.426E+00 3.704E-01 3.359E-01 4.141E-03-1.866E-02 1.794E+09 5.236E-01 1.043E+35
   59 3.320E+11 2.864E+07 2.237E+00 3.399E+15 1.426E+00 3.705E-01 3.360E-01 4.197E-03-1.886E-02 1.790E+09 5.347E-01 1.067E+35
   60 3.359E+11 2.840E+07 2.290E+00 3.288E+15 1.426E+00 3.706E-01 3.360E-01 4.253E-03-1.907E-02 1.786E+09 5.460E-01 1.091E+35
   61 3.398E+11 2.815E+07 2.344E+00 3.180E+15 1.426E+00 3.707E-01 3.360E-01 4.311E-03-1.928E-02 1.782E+09 5.573E-01 1.115E+35
   62 3.438E+11 2.790E+07 2.402E+00 3.072E+15 1.427E+00 3.708E-01 3.360E-01 4.371E-03-1.950E-02 1.777E+09 5.687E-01 1.139E+35
   63 3.478E+11 2.765E+07 2.461E+00 2.967E+15 1.427E+00 3.708E-01 3.360E-01 4.432E-03-1.973E-02 1.773E+09 5.802E-01 1.164E+35
   64 3.519E+11 2.739E+07 2.523E+00 2.863E+15 1.427E+00 3.709E-01 3.361E-01 4.495E-03-1.996E-02 1.769E+09 3.195E-01 1.188E+35
   65 3.560E+11 2.713E+07 2.589E+00 2.760E+15 1.427E+00 3.710E-01 3.361E-01 4.559E-03-2.020E-02 1.764E+09 3.048E-01 1.213E+35
   66 3.602E+11 2.687E+07 2.657E+00 2.659E+15 1.427E+00 3.711E-01 3.361E-01 4.626E-03-2.045E-02 1.760E+09 2.910E-01 1.239E+35
   67 3.644E+11 2.661E+07 2.729E+00 2.560E+15 1.427E+00 3.712E-01 3.361E-01 4.694E-03-2.071E-02 1.755E+09 2.784E-01 1.264E+35
   68 3.687E+11 2.634E+07 2.804E+00 2.462E+15 1.427E+00 3.713E-01 3.362E-01 4.765E-03-2.098E-02 1.750E+09 2.671E-01 1.290E+35
   69 3.730E+11 2.607E+07 2.884E+00 2.366E+15 1.428E+00 3.714E-01 3.362E-01 4.837E-03-2.126E-02 1.745E+09 2.722E-01 1.316E+35
   70 3.774E+11 2.579E+07 2.967E+00 2.272E+15 1.428E+00 3.716E-01 3.362E-01 4.912E-03-2.155E-02 1.740E+09 3.155E-01 1.342E+35
   71 3.819E+11 2.551E+07 3.055E+00 2.179E+15 1.428E+00 3.717E-01 3.363E-01 4.990E-03-2.185E-02 1.735E+09 3.576E-01 1.369E+35
   72 3.865E+11 2.523E+07 3.148E+00 2.088E+15 1.428E+00 3.718E-01 3.363E-01 5.070E-03-2.216E-02 1.730E+09 3.986E-01 1.396E+35
   73 3.911E+11 2.494E+07 3.246E+00 1.998E+15 1.428E+00 3.719E-01 3.363E-01 5.153E-03-2.248E-02 1.724E+09 4.382E-01 1.423E+35
   74 3.958E+11 2.465E+07 3.350E+00 1.910E+15 1.429E+00 3.720E-01 3.364E-01 5.239E-03-2.282E-02 1.719E+09 4.765E-01 1.450E+35
   75 4.006E+11 2.436E+07 3.461E+00 1.824E+15 1.429E+00 3.722E-01 3.364E-01 5.329E-03-2.317E-02 1.713E+09 5.134E-01 1.478E+35
   76 4.055E+11 2.406E+07 3.578E+00 1.739E+15 1.429E+00 3.723E-01 3.364E-01 5.422E-03-2.354E-02 1.707E+09 5.488E-01 1.506E+35
   77 4.105E+11 2.375E+07 3.702E+00 1.656E+15 1.429E+00 3.724E-01 3.365E-01 5.519E-03-2.393E-02 1.701E+09 5.827E-01 1.534E+35
   78 4.156E+11 2.344E+07 3.835E+00 1.575E+15 1.429E+00 3.726E-01 3.365E-01 5.621E-03-2.433E-02 1.695E+09 6.151E-01 1.563E+35
   79 4.208E+11 2.313E+07 3.977E+00 1.495E+15 1.430E+00 3.727E-01 3.366E-01 5.726E-03-2.476E-02 1.688E+09 6.460E-01 1.591E+35
   80 4.262E+11 2.281E+07 4.129E+00 1.417E+15 1.430E+00 3.729E-01 3.366E-01 5.837E-03-2.520E-02 1.682E+09 6.754E-01 1.620E+35
   81 4.316E+11 2.248E+07 4.292E+00 1.341E+15 1.430E+00 3.730E-01 3.367E-01 5.954E-03-2.567E-02 1.675E+09 7.034E-01 1.650E+35
   82 4.372E+11 2.215E+07 4.467E+00 1.266E+15 1.430E+00 3.732E-01 3.367E-01 6.076E-03-2.617E-02 1.668E+09 7.298E-01 1.680E+35
   83 4.430E+11 2.181E+07 4.656E+00 1.193E+15 1.431E+00 3.734E-01 3.368E-01 6.204E-03-2.669E-02 1.661E+09 7.549E-01 1.710E+35
   84 4.488E+11 2.146E+07 4.860E+00 1.122E+15 1.431E+00 3.736E-01 3.368E-01 6.340E-03-2.724E-02 1.653E+09 7.785E-01 1.740E+35
   85 4.549E+11 2.111E+07 5.081E+00 1.053E+15 1.431E+00 3.738E-01 3.369E-01 6.484E-03-2.783E-02 1.645E+09 8.008E-01 1.770E+35
   86 4.611E+11 2.075E+07 5.322E+00 9.854E+14 1.432E+00 3.740E-01 3.369E-01 6.636E-03-2.846E-02 1.637E+09 5.657E-01 1.801E+35
   87 4.676E+11 2.037E+07 5.585E+00 9.197E+14 1.432E+00 3.742E-01 3.370E-01 6.798E-03-2.912E-02 1.629E+09 6.290E-01 1.833E+35
   88 4.742E+11 1.999E+07 5.872E+00 8.558E+14 1.432E+00 3.744E-01 3.371E-01 6.970E-03-2.984E-02 1.620E+09 6.860E-01 1.864E+35
   89 4.811E+11 1.961E+07 6.189E+00 7.938E+14 1.433E+00 3.746E-01 3.372E-01 7.155E-03-3.060E-02 1.611E+09 7.369E-01 1.896E+35
   90 4.882E+11 1.921E+07 6.539E+00 7.337E+14 1.433E+00 3.749E-01 3.372E-01 7.353E-03-3.142E-02 1.601E+09 7.822E-01 1.928E+35
   91 4.956E+11 1.879E+07 6.928E+00 6.754E+14 1.434E+00 3.751E-01 3.373E-01 7.567E-03-3.231E-02 1.591E+09 8.222E-01 1.961E+35
   92 5.033E+11 1.837E+07 7.362E+00 6.190E+14 1.434E+00 3.754E-01 3.374E-01 7.798E-03-3.328E-02 1.581E+09 8.572E-01 1.993E+35
   93 5.114E+11 1.793E+07 7.849E+00 5.646E+14 1.434E+00 3.757E-01 3.375E-01 8.050E-03-3.433E-02 1.569E+09 8.877E-01 2.027E+35
   94 5.198E+11 1.748E+07 8.401E+00 5.122E+14 1.435E+00 3.760E-01 3.376E-01 8.325E-03-3.548E-02 1.558E+09 9.140E-01 2.060E+35
   95 5.286E+11 1.701E+07 9.030E+00 4.618E+14 1.435E+00 3.764E-01 3.378E-01 8.628E-03-3.675E-02 1.545E+09 9.365E-01 2.094E+35
   96 5.380E+11 1.653E+07 9.754E+00 4.134E+14 1.436E+00 3.768E-01 3.379E-01 8.964E-03-3.816E-02 1.532E+09 9.557E-01 2.128E+35
   97 5.478E+11 1.602E+07 1.060E+01 3.670E+14 1.437E+00 3.772E-01 3.381E-01 9.339E-03-3.973E-02 1.517E+09 9.718E-01 2.163E+35
   98 5.584E+11 1.549E+07 1.159E+01 3.228E+14 1.437E+00 3.776E-01 3.382E-01 9.761E-03-4.151E-02 1.502E+09 9.852E-01 2.197E+35
   99 5.696E+11 1.493E+07 1.277E+01 2.807E+14 1.438E+00 3.781E-01 3.385E-01 1.024E-02-4.354E-02 1.485E+09 9.743E-01 2.233E+35
  100 5.817E+11 1.434E+07 1.420E+01 2.409E+14 1.439E+00 3.787E-01 3.387E-01 1.080E-02-4.589E-02 1.467E+09 9.934E-01 2.268E+35
  101 5.949E+11 1.371E+07 1.598E+01 2.033E+14 1.440E+00 3.793E-01 3.390E-01 1.145E-02-4.864E-02 1.446E+09 1.000E+00 2.304E+35
  102 6.094E+11 1.304E+07 1.823E+01 1.681E+14 1.441E+00 3.801E-01 3.393E-01 1.223E-02-5.193E-02 1.424E+09 1.000E+00 2.340E+35
  103 6.250E+11 1.233E+07 2.113E+01 1.359E+14 1.442E+00 3.809E-01 3.397E-01 1.317E-02-5.590E-02 1.398E+09 1.000E+00 2.376E+35
  104 6.419E+11 1.160E+07 2.506E+01 1.072E+14 1.443E+00 3.814E-01 3.401E-01 1.415E-02-6.007E-02 1.383E+09 1.000E+00 2.410E+35
  105 6.598E+11 1.085E+07 3.030E+01 8.256E+13 1.443E+00 3.819E-01 3.406E-01 1.528E-02-6.483E-02 1.370E+09 1.000E+00 2.441E+35
  106 6.784E+11 1.009E+07 3.728E+01 6.219E+13 1.444E+00 3.822E-01 3.411E-01 1.655E-02-7.021E-02 1.360E+09 1.000E+00 2.469E+35
  107 6.974E+11 9.351E+06 4.657E+01 4.599E+13 1.444E+00 3.825E-01 3.417E-01 1.797E-02-7.623E-02 1.352E+09 1.000E+00 2.493E+35
  108 7.164E+11 8.636E+06 5.885E+01 3.354E+13 1.445E+00 3.827E-01 3.424E-01 1.953E-02-8.287E-02 1.347E+09 1.000E+00 2.514E+35
  109 7.349E+11 7.962E+06 7.492E+01 2.426E+13 1.445E+00 3.828E-01 3.431E-01 2.123E-02-9.007E-02 1.344E+09 1.000E+00 2.530E+35
  110 7.528E+11 7.336E+06 9.569E+01 1.750E+13 1.445E+00 3.829E-01 3.439E-01 2.305E-02-9.778E-02 1.343E+09 1.000E+00 2.543E+35
  111 7.698E+11 6.764E+06 1.222E+02 1.264E+13 1.445E+00 3.828E-01 3.447E-01 2.497E-02-1.059E-01 1.344E+09 1.000E+00 2.553E+35
  112 7.859E+11 6.244E+06 1.556E+02 9.170E+12 1.445E+00 3.827E-01 3.456E-01 2.699E-02-1.145E-01 1.346E+09 1.000E+00 2.561E+35
  113 8.011E+11 5.771E+06 1.977E+02 6.680E+12 1.445E+00 3.826E-01 3.465E-01 2.911E-02-1.235E-01 1.350E+09 1.000E+00 2.567E+35
  114 8.156E+11 5.341E+06 2.505E+02 4.887E+12 1.444E+00 3.824E-01 3.475E-01 3.133E-02-1.329E-01 1.354E+09 1.000E+00 2.572E+35
  115 8.293E+11 4.948E+06 3.166E+02 3.589E+12 1.444E+00 3.822E-01 3.485E-01 3.365E-02-1.427E-01 1.360E+09 1.000E+00 2.576E+35
  116 8.422E+11 4.588E+06 3.993E+02 2.645E+12 1.444E+00 3.820E-01 3.496E-01 3.608E-02-1.530E-01 1.366E+09 1.000E+00 2.578E+35
  117 8.545E+11 4.258E+06 5.024E+02 1.956E+12 1.443E+00 3.818E-01 3.507E-01 3.863E-02-1.638E-01 1.373E+09 1.000E+00 2.581E+35
  118 8.662E+11 3.955E+06 6.309E+02 1.451E+12 1.443E+00 3.815E-01 3.519E-01 4.130E-02-1.751E-01 1.381E+09 1.000E+00 2.582E+35
  119 8.772E+11 3.677E+06 7.909E+02 1.079E+12 1.443E+00 3.812E-01 3.532E-01 4.408E-02-1.869E-01 1.389E+09 1.000E+00 2.584E+35
  120 8.877E+11 3.421E+06 9.897E+02 8.050E+11 1.442E+00 3.809E-01 3.545E-01 4.700E-02-1.993E-01 1.398E+09 1.000E+00 2.585E+35
  121 8.976E+11 3.185E+06 1.236E+03 6.019E+11 1.442E+00 3.806E-01 3.559E-01 5.004E-02-2.121E-01 1.408E+09 1.000E+00 2.586E+35
  122 9.070E+11 2.966E+06 1.543E+03 4.510E+11 1.441E+00 3.802E-01 3.574E-01 5.322E-02-2.256E-01 1.418E+09 1.000E+00 2.586E+35
  123 9.159E+11 2.765E+06 1.922E+03 3.387E+11 1.441E+00 3.799E-01 3.589E-01 5.652E-02-2.396E-01 1.429E+09 1.000E+00 2.587E+35
  124 9.244E+11 2.579E+06 2.392E+03 2.549E+11 1.440E+00 3.795E-01 3.605E-01 5.997E-02-2.541E-01 1.441E+09 1.000E+00 2.587E+35
  125 9.324E+11 2.406E+06 2.973E+03 1.922E+11 1.440E+00 3.791E-01 3.622E-01 6.355E-02-2.692E-01 1.453E+09 1.000E+00 2.587E+35
  126 9.399E+11 2.246E+06 3.692E+03 1.451E+11 1.439E+00 3.787E-01 3.640E-01 6.727E-02-2.849E-01 1.466E+09 1.000E+00 2.588E+35
  127 9.471E+11 2.098E+06 4.581E+03 1.098E+11 1.438E+00 3.783E-01 3.658E-01 7.113E-02-3.012E-01 1.479E+09 1.000E+00 2.588E+35
  128 9.539E+11 1.960E+06 5.679E+03 8.314E+10 1.438E+00 3.779E-01 3.678E-01 7.514E-02-3.181E-01 1.494E+09 1.000E+00 2.588E+35
  129 9.604E+11 1.832E+06 7.034E+03 6.307E+10 1.437E+00 3.774E-01 3.698E-01 7.928E-02-3.355E-01 1.509E+09 1.000E+00 2.588E+35
  130 9.665E+11 1.713E+06 8.708E+03 4.791E+10 1.436E+00 3.769E-01 3.719E-01 8.357E-02-3.535E-01 1.525E+09 1.000E+00 2.588E+35
  131 9.723E+11 1.603E+06 1.077E+04 3.643E+10 1.436E+00 3.765E-01 3.742E-01 8.799E-02-3.721E-01 1.542E+09 1.000E+00 2.588E+35
  132 9.778E+11 1.500E+06 1.332E+04 2.774E+10 1.435E+00 3.760E-01 3.765E-01 9.256E-02-3.912E-01 1.559E+09 1.000E+00 2.588E+35
  133 9.831E+11 1.404E+06 1.646E+04 2.114E+10 1.434E+00 3.755E-01 3.789E-01 9.726E-02-4.108E-01 1.578E+09 1.000E+00 2.588E+35
  134 9.880E+11 1.315E+06 2.033E+04 1.613E+10 1.433E+00 3.750E-01 3.814E-01 1.021E-01-4.310E-01 1.597E+09 1.000E+00 2.588E+35
  135 9.927E+11 1.231E+06 2.511E+04 1.232E+10 1.432E+00 3.744E-01 3.840E-01 1.071E-01-4.516E-01 1.618E+09 1.000E+00 2.588E+35
  136 9.972E+11 1.154E+06 3.099E+04 9.415E+09 1.432E+00 3.739E-01 3.868E-01 1.122E-01-4.727E-01 1.639E+09 1.000E+00 2.588E+35
  137 1.001E+12 1.081E+06 3.825E+04 7.203E+09 1.431E+00 3.734E-01 3.896E-01 1.174E-01-4.943E-01 1.662E+09 1.000E+00 2.588E+35
  138 1.005E+12 1.013E+06 4.719E+04 5.514E+09 1.430E+00 3.728E-01 3.925E-01 1.227E-01-5.163E-01 1.685E+09 1.000E+00 2.588E+35
  139 1.009E+12 9.500E+05 5.821E+04 4.224E+09 1.429E+00 3.722E-01 3.955E-01 1.282E-01-5.387E-01 1.710E+09 1.000E+00 2.588E+35
  140 1.013E+12 8.908E+05 7.179E+04 3.238E+09 1.428E+00 3.717E-01 3.987E-01 1.338E-01-5.614E-01 1.735E+09 1.000E+00 2.588E+35
  141 1.016E+12 8.355E+05 8.853E+04 2.484E+09 1.427E+00 3.711E-01 4.019E-01 1.395E-01-5.844E-01 1.762E+09 1.000E+00 2.588E+35
  142 1.020E+12 7.838E+05 1.092E+05 1.907E+09 1.426E+00 3.705E-01 4.052E-01 1.452E-01-6.078E-01 1.790E+09 1.000E+00 2.588E+35
  143 1.023E+12 7.354E+05 1.346E+05 1.465E+09 1.425E+00 3.699E-01 4.087E-01 1.511E-01-6.314E-01 1.820E+09 1.000E+00 2.588E+35
  144 1.026E+12 6.902E+05 1.659E+05 1.125E+09 1.424E+00 3.693E-01 4.122E-01 1.571E-01-6.552E-01 1.850E+09 1.000E+00 2.588E+35
  145 1.029E+12 6.478E+05 2.046E+05 8.652E+08 1.423E+00 3.687E-01 4.158E-01 1.632E-01-6.793E-01 1.882E+09 1.000E+00 2.588E+35
  146 1.031E+12 6.081E+05 2.523E+05 6.655E+08 1.422E+00 3.680E-01 4.195E-01 1.693E-01-7.036E-01 1.916E+09 1.000E+00 2.588E+35
  147 1.034E+12 5.709E+05 3.111E+05 5.121E+08 1.421E+00 3.674E-01 4.233E-01 1.756E-01-7.282E-01 1.951E+09 1.000E+00 2.588E+35
  148 1.036E+12 5.361E+05 3.836E+05 3.942E+08 1.420E+00 3.668E-01 4.272E-01 1.819E-01-7.532E-01 1.988E+09 1.000E+00 2.588E+35
  149 1.039E+12 5.035E+05 4.732E+05 3.036E+08 1.419E+00 3.661E-01 4.312E-01 1.883E-01-7.787E-01 2.027E+09 1.000E+00 2.588E+35
  150 1.041E+12 4.729E+05 5.839E+05 2.339E+08 1.418E+00 3.655E-01 4.352E-01 1.948E-01-8.049E-01 2.068E+09 1.000E+00 2.588E+35
  151 1.043E+12 4.443E+05 7.207E+05 1.802E+08 1.416E+00 3.648E-01 4.394E-01 2.014E-01-8.321E-01 2.112E+09 1.000E+00 2.588E+35
  152 1.045E+12 4.174E+05 8.901E+05 1.389E+08 1.415E+00 3.641E-01 4.436E-01 2.082E-01-8.608E-01 2.159E+09 1.000E+00 2.588E+35
